	T[K]	W1	W2
300 0.99993 0.00007
400 0.99998 0.00002
500 0.99994 0.00006
600 0.99991 0.00009
700 0.99985 0.00015
800 0.99989 0.00011
900 0.99994 0.00006
1000 0.99993 0.00007
1100 0.99984 0.00016
1200 0.99994 0.00006
1300 0.99989 0.00011
1400 0.99977 0.00023
1500 0.99962 0.00038
1600 0.99941 0.00059
1700 0.99899 0.00101
1800 0.99855 0.00145
1900 0.99786 0.00214
2000 0.99689 0.00311
2100 0.99582 0.00418
2200 0.99423 0.00577
2300 0.99255 0.00745
2400 0.99027 0.00973
2500 1.00000 0.00000
