	T[K]	N1a	N1b	N1c
600 0.00001 0.95492 0.04013
700 0.00004 0.93078 0.06429
800 0.00013 0.90431 0.09069
900 0.00040 0.87720 0.11756
1000 0.00096 0.85059 0.14362
1100 0.00192 0.82262 0.16933
1200 0.00326 0.79799 0.19261
1300 0.00500 0.77420 0.21467
1400 0.00711 0.75115 0.23561
1500 0.00963 0.72876 0.25546
1600 0.01257 0.70689 0.27458
1700 0.01501 0.68549 0.29350
1800 0.01869 0.66490 0.31039
1900 0.02294 0.64436 0.32709
2000 0.02855 0.62562 0.34024
