	T[K]	N1a	N1b	N1c
600 0.00028 0.97196 0.02764
700 0.00091 0.95261 0.04635
800 0.00216 0.92978 0.06793
900 0.00415 0.90475 0.09095
1000 0.00666 0.87805 0.11516
1100 0.00890 0.84957 0.14153
1200 0.01030 0.82033 0.16937
1300 0.01186 0.79325 0.19488
1400 0.01391 0.76840 0.21769
1500 0.01580 0.74460 0.23960
1600 0.01669 0.72020 0.26310
1700 0.02174 0.70131 0.27695
1800 0.02746 0.68339 0.28916
1900 0.03376 0.66634 0.29989
2000 0.04058 0.65008 0.30934
